wavelength,flux
5139.460261388102,723.9554793456517
5139.4722931080605,725.8496488321761
5139.481254664994,726.9640412050574
5139.493286384951,728.1709738876239
5139.502247941885,728.8610819795775
5139.514279661843,729.4972847617383
5139.523241218776,729.724228173147
5139.532285753089,729.7545488639086
5139.5442344956655,729.5938893630829
5139.553279029977,729.4942651640043
5139.565227772553,729.7455983835919
5139.574272306862,730.475833386869
5139.58622104944,732.42893495981
5139.59526558375,734.7223477395729
5139.607297303704,738.7125915445281
5139.616258860635,742.1858593497445
5139.625220417567,745.8222403412854
5139.637252137519,750.6138028976068
5139.646213694449,753.83358084279
5139.658245414402,757.4817348790356
5139.667206971331,759.5729778775053
5139.679238691284,761.5004704047107
5139.6882002482125,762.2129922318834
5139.697244782519,762.2556691295977
5139.709193525093,761.1078118286557
5139.718238059399,759.2368940052664
5139.73018680197,755.4471174059125
5139.739231336277,751.7434225397207
5139.751180078847,746.3880683817439
5139.760224613156,742.5547982882367
5139.772173355724,738.8548217202181
5139.781217890029,737.6370264678125
5139.790179446957,738.091410015299
5139.802211166904,741.2569127818722
5139.81117272383,745.1581058023198
5139.823204443777,751.6432620484759
5139.832166000702,756.7250255074413
5139.8441977206485,763.1510148026604
5139.8531592775735,767.2634973535364
5139.862203811878,770.7518272430677
5139.874152554446,774.3062061112983
5139.883197088747,776.3509394768352
5139.895145831313,778.3568056169036
5139.904190365616,779.5100146643782
5139.916139108182,780.6837051742447
5139.925183642483,781.3950948404151
5139.9371323850455,782.1230721587314
5139.9461769193485,782.4896242497097
5139.955138476272,782.620173051019
5139.967170196214,782.3002866528683
5139.976131753137,781.6233555935767
5139.988163473076,780.1584553549468
5139.99712503,778.8280400969884
5140.009156749939,777.1303106978119
5140.018118306861,776.2924614642784
5140.027162841161,776.0704793171108
5140.039111583721,776.97367338472
5140.048156118021,778.5510856879225
5140.0601048605795,781.5447705211759
5140.06914939488,784.2270250073773
5140.081098137439,787.8377048935411
5140.090142671737,790.407666486824
5140.102091414296,793.3127515631705
5140.111135948594,795.1066029398013
5140.120097505512,796.5194612897621
5140.132129225448,797.9262852487268
5140.1410907823665,798.6489026823381
5140.153122502302,799.2752732466546
5140.16208405922,799.5236693287521
5140.174115779156,799.6367456552096
5140.183077336073,799.6179062039931
5140.195109056007,799.6000192951681
5140.204070612925,799.7309060540787
5140.2131151472195,800.1113720679825
5140.225063889773,801.1460641400781
5140.234108424068,802.3658571813507
5140.246057166623,804.4375804236864
5140.255101700916,806.2054169116241
5140.267050443469,808.4943894505934
5140.276094977763,810.0392861938055
5140.285056534677,811.3063135176061
5140.297088254609,812.5802961437325
5140.306049811523,813.2369021704259
5140.318081531454,813.8520855827319
5140.327043088367,814.1966906202995
5140.339074808296,814.6351645546246
5140.34803636521,814.9984475582115
5140.36006808514,815.5802939596063
5140.369029642052,816.0781847328836
5140.378074176342,816.6176711846645
5140.390022918889,817.3255817291797
5140.3990674531815,817.81483247159
5140.41101619573,818.3056190991146
5140.420060730021,818.503362422297
5140.432009472569,818.4540652870513
5140.4410540068575,818.1810273826885
5140.450015563768,817.7679125231961
5140.462047283694,817.1954155871822
5140.471008840603,816.9712136969426
5140.483040560529,817.2305170880994
5140.492002117438,817.9457285137491
5140.504033837362,819.554495603992
5140.5129953942715,821.0413424812335
5140.525027114195,823.0357762439935
5140.533988671104,824.2177395897161
5140.54303320539,824.9594996641625
5140.554981947934,825.0384535060567
5140.564026482221,824.4244055119923
5140.575975224762,822.9251944133969
5140.585019759051,821.544581309546
5140.596968501592,819.9336248778125
5140.606013035877,819.1974644754941
5140.614974592783,819.0949220702754
5140.627006312703,819.9996142460976
5140.635967869609,821.3435506707506
5140.647999589529,823.7355451982904
5140.656961146435,825.7045323504775
5140.668992866353,828.3460198656326
5140.6779544232595,830.187280827862
5140.689986143177,832.4272499712278
5140.698947700082,833.8646575444169
5140.707992234362,835.0772223711473
5140.719940976901,836.1821839690858
5140.728985511184,836.5815659410172
5140.74093425372,836.4221365737615
5140.749978788003,835.723504901379
5140.76192753054,833.8802830402776
5140.770972064822,831.586754057733
5140.782920807357,826.9970819721185
5140.791965341638,822.0624072356884
5140.80092689854,815.8807084692924
5140.812958618455,805.8221130097054
5140.821920175355,797.7472446727874
5140.833951895269,787.5250512936473
5140.842913452169,781.6097247935226
5140.854945172081,777.2712937522178
5140.863906728982,777.2462649841077
5140.872951263261,779.8137370155193
5140.884900005794,786.2068969420984
5140.893944540072,792.1816347172436
5140.905893282604,799.7060552889125
5140.914937816881,804.2622194713828
5140.926886559413,808.0793563508971
5140.93593109369,809.5903830512788
5140.947879836222,810.7081432826006
5140.956924370498,811.7999706221544
5140.965885927395,813.722879560827
5140.977917647304,818.1620305865086
5140.9868792042025,822.7661978753044
5140.9989109241105,830.089395023552
5141.0078724810055,835.714464685683
5141.0199042009135,842.6780112281225
5141.0288657578085,846.9756530831124
5141.037910292083,850.4385968169696
5141.0498590346115,853.654321843311
5141.0589035688845,855.2580854043209
5141.070852311412,856.517535630062
5141.0798968456875,857.0123588205998
5141.091845588213,857.2314801012136
5141.100890122485,857.166095481163
5141.112838865011,856.8483316368198
5141.121883399284,856.4317172544702
5141.130844956178,855.8017105199784
5141.142876676079,854.3994111885527
5141.151838232971,852.7463357654138
5141.163869952875,849.482128198432
5141.172831509768,846.3244740708773
5141.1848632296715,841.4843502161339
5141.193824786562,837.9577222107823
5141.202869320831,834.905511362894
5141.214818063353,832.2354116775235
5141.223862597622,831.2721343533851
5141.235811340145,830.9541364784951
5141.244855874415,830.7489607066814
5141.256804616936,829.2643717840485
5141.265849151204,826.1543427816388
5141.277797893724,817.3055473692476
5141.286842427992,804.8363640804945
5141.295803984883,785.1125365171255
5141.30783570478,742.8615580480148
5141.316797261668,697.7906502201163
5141.328828981566,619.1308080850614
5141.337790538454,551.1808187768625
5141.34982225835,456.07375682160455
5141.358783815239,390.72005703296713
5141.370815535135,319.5971358829665
5141.379777092022,284.6396117162621
5141.388821626289,267.2698535789541
5141.400770368803,273.0163827896542
5141.409814903069,299.06575097523705
5141.421763645584,360.0622802127821
5141.430808179848,422.0542783718987
5141.4427569223635,516.8694992278292
5141.451801456627,590.7454343939949
5141.460763013514,658.6864108956713
5141.472794733406,734.6936827341596
5141.48175629029,776.5373633862312
5141.493788010182,814.0986763065346
5141.502749567066,830.5450911859781
5141.514781286956,842.6957222489153
5141.523742843841,847.3225689631167
5141.535774563731,851.1003193248199
5141.544736120615,853.3748904757467
5141.553780654876,855.8002942868432
5141.565729397385,859.4730054124722
5141.5747739316475,862.4386097387697
5141.5867226741575,866.1040126969335
5141.595767208418,868.1061895306641
5141.607715950928,868.8100575941071
5141.616760485187,867.1554117147037
5141.6257220420675,863.1846773730118
5141.637753761956,854.1362261578971
5141.646715318837,845.119706529378
5141.658747038722,831.937082898275
5141.6677085956035,823.3297934544186
5141.679740315488,816.1095367419248
5141.688701872369,815.2114018086864
5141.700733592253,820.0525867655011
5141.709695149131,826.9714112915318
5141.718656706012,835.1916792533742
5141.730688425894,845.9660004146538
5141.739649982773,852.5589397007531
5141.751681702656,859.0677376821865
5141.760643259534,862.4771211588399
5141.772674979417,866.1053010389935
5141.781719513672,868.603927859736
5141.790681070551,871.1158085254211
5141.802712790431,874.3815491574586
5141.811674347307,876.4883814296692
5141.823706067188,878.2719877831652
5141.832667624065,878.4235736309396
5141.844699343944,876.4073450541453
5141.853660900821,872.9131950884198
5141.8656926207,865.3480256536144
5141.874654177575,857.9758505768305
5141.8836157344485,849.8234758667663
5141.895647454328,839.1775135004708
5141.9046090112015,832.7680440397181
5141.9166407310795,827.350588581352
5141.9256022879545,825.8803695516857
5141.937634007831,826.550414734503
5141.946595564706,828.169386860107
5141.958627284579,830.7213659410888
5141.967588841454,832.5395059186866
5141.976633375703,834.3300307268751
5141.98866509558,836.8511308176593
5141.997626652451,838.8545564917778
5142.009658372325,841.0796755170112
5142.018619929198,841.4934360821068
5142.030651649072,838.2932243622521
5142.039613205941,831.3261109791359
5142.048574762814,818.5801132003664
5142.060606482686,789.2885024452064
5142.0695680395565,756.6466307630974
5142.081599759428,697.0810208824978
5142.090561316299,642.7349412265993
5142.102593036168,561.1035188544801
5142.111554593039,499.5126716528007
5142.12358631291,422.96642849915526
5142.13254786978,375.03289551057776
5142.141592404026,335.7980094484818
5142.153541146517,298.9605654949056
5142.162585680763,280.71767548831446
5142.174534423254,268.0599871531833
5142.1835789575,266.57224802539844
5142.195610677368,276.91439148540354
5142.2045722342355,295.37514424749287
5142.213533791101,324.19159470142074
5142.225565510969,379.9437872286762
5142.234527067836,432.13788782712084
5142.246558787702,511.5082676194306
5142.255520344567,571.83561662155
5142.267552064433,647.3093373628725
5142.276513621299,694.7422882009735
5142.288545341164,743.9484298596152
5142.2975068980295,769.1270744191794
5142.306551432272,785.5257734331517
5142.318500174758,793.7847513992045
5142.327544709001,790.101716485908
5142.339493451486,770.4723711596001
5142.348537985728,743.006115872623
5142.360486728212,689.2520802259102
5142.369531262454,636.479962949209
5142.378492819315,577.6707289148296
5142.390524539179,495.41121370261976
5142.399486096041,439.2307947901625
5142.411517815902,378.9757623516562
5142.420479372763,349.88032114546326
5142.432511092622,333.0332791672805
5142.441472649484,335.2260691442564
5142.453504369344,351.22773784861425
5142.4624659262045,366.87424595985135
5142.471510460443,380.55422150034804
5142.483459202924,387.74245879478485
5142.492503737163,381.57082926863217
5142.504452479642,356.52992113846517
5142.51349701388,326.67795927116777
5142.52544575636,278.70750233027616
5142.534490290595,240.3571806909978
5142.5464390330735,194.02965728735782
5142.555483567311,165.2494765223021
5142.564445124169,144.3007079900182
5142.576476844026,129.29375930933898
5142.5854384008835,128.9076008780968
5142.597470120738,143.80979269032687
5142.6064316775955,167.29695234947195
5142.618463397449,216.48521343336873
5142.627424954306,265.767473404945
5142.6364694885415,325.27011905668064
5142.648418231015,413.2439577698583
5142.65746276525,482.7708761003179
5142.6694115077225,569.8883885809375
5142.678456041958,628.8741637444462
5142.69040478443,692.7800587305038
5142.699449318665,730.6707072549436
5142.7113980611375,767.1179524381411
5142.72044259537,786.3659659260244
5142.729404152225,799.6171457500011
5142.7414358720725,811.2466732617995
5142.750397428927,817.2637163731957
5142.762429148777,824.932455453809
5142.7713907056295,831.9187440785295
5142.783422425479,844.4034769521851
5142.7923839823325,855.8473560229882
5142.801428516562,868.6269870818256
5142.813377259032,885.5173592871188
5142.822421793261,897.2841092618677
5142.834370535731,910.1555272302911
5142.8434150699595,917.8157214065071
5142.8553638124295,925.2507451186094
5142.864408346657,929.2283033433432
5142.876357089124,932.3955147581192
5142.885401623354,933.0804565847365
5142.894363180203,931.839284062424
5142.906394900048,926.2662320266489
5142.915356456897,918.634378387589
5142.927388176742,903.5944573001696
5142.936349733591,889.8310032867363
5142.948381453434,870.6769812482299
5142.957343010282,858.7968559514785
5142.9693747301235,849.9045357847076
5142.978336286973,850.5023582661815
5142.987380821199,857.544496407543
5142.999329563662,875.1070858668409
5143.008374097889,892.2138360986281
5143.0203228403525,915.482115789775
5143.0293673745755,931.4309906357373
5143.041316117038,948.013829924223
5143.050360651261,957.0725303016296
5143.059322208108,963.3401046259435
5143.071353927948,968.714097411872
5143.080315484793,971.1667904839722
5143.092347204632,973.3258502487694
5143.101308761477,974.4348997435259
5143.1133404813145,975.5778183341549
5143.122302038159,976.2251791428944
5143.1343337579965,976.7903599792852
5143.143295314839,976.8567061429804
5143.152339849062,976.4641136729592
5143.164288591521,974.9426772126463
5143.173333125742,972.8587218685223
5143.185281868198,968.8294840997529
5143.1943264024185,964.9869223733164
5143.206275144875,959.5544821291636
5143.215319679095,955.7854761505762
5143.224281235937,953.0051747763971
5143.236312955771,951.4912329592152
5143.245274512613,952.3574773847935
5143.257306232446,956.034175758354
5143.266267789287,960.0499382799953
5143.278299509119,965.7075488575109
5143.28726106596,968.6661807134711
5143.299292785791,968.5636903968226
5143.308254342632,963.6644508452255
5143.317298876848,953.4640177215705
5143.329247619302,931.4936586609609
5143.338292153519,909.6830604989425
5143.35024089597,878.9067565161076
5143.359285430188,858.466676321742
5143.371234172638,842.40047338217
5143.380278706855,841.2853701007548
5143.389240263692,850.2435729237035
5143.401271983521,874.8865784249508
5143.410233540359,898.3823683162225
5143.422265260187,930.1412943367885
5143.431226817022,950.0573846237654
5143.44325853685,969.0668833912997
5143.452220093686,976.9875225635648
5143.4642518135115,980.3873923709644
5143.473213370347,978.4261061653239
5143.482257904561,973.3950393746477
5143.494206647009,963.2213743500665
5143.503251181222,953.8940537949505
5143.515199923669,941.6559204297483
5143.524244457882,934.0486931577341
5143.536193200326,928.5768778612099
5143.545237734539,928.6067403210371
5143.5571864769845,934.0103725416769
5143.566231011197,941.0266662798678
5143.575192568029,949.1493177983988
5143.587224287851,960.0227535261533
5143.5961858446835,967.1284792069231
5143.608217564505,975.0490910691233
5143.617179121337,979.9402891173274
5143.629210841158,985.8097950673217
5143.63817239799,989.9217969014514
5143.6472169322,993.9459558338177
5143.659165674641,998.8722778546302
5143.668210208851,1002.1759511463773
5143.680158951291,1005.6556331240121
5143.6892034855,1007.5275799083787
5143.70115222794,1008.8439097691921
5143.7101967621475,1009.0174700998216
5143.722145504588,1008.3542791642185
5143.731190038795,1007.4643652161787
5143.7401515956235,1006.5618627944773
5143.7521833154415,1005.7876743974422
5143.761144872271,1005.7962891203576
5143.773176592086,1006.707870170107
5143.782138148914,1007.9538196954857
5143.794169868729,1010.0848952675988
5143.803131425558,1011.779436126525
5143.812175959762,1013.4549137180034
5143.824124702199,1015.5116351377405
5143.833169236404,1016.9916922531656
5143.845117978839,1018.9127341232115
5143.854162513044,1020.4131862425355
5143.86611125548,1022.4606857087332
5143.875155789683,1024.053432336523
5143.887104532117,1026.1224654937037
5143.8961490663205,1027.626862184285
5143.905110623145,1029.0190414137621
5143.917142342957,1030.7179055890138
5143.926103899782,1031.8210630951498
5143.938135619593,1033.0561909553517
5143.947097176416,1033.7332358312042
5143.9591288962265,1034.2305360833361
5143.968090453049,1034.2198521641333
5143.977134987251,1033.8436135338854
5143.989083729682,1032.8243788930943
5143.998128263883,1031.7932764909924
5144.010077006312,1030.4273090898457
5144.019121540513,1029.7106550694223
5144.031070282942,1029.5852013500032
5144.040114817143,1030.2615652903744
5144.052063559571,1032.118214036664
5144.061108093771,1034.0164781244832
5144.070069650592,1036.0155700968012
5144.082101370396,1038.4370937461829
5144.091062927218,1039.7642057405835
5144.103094647023,1040.7083211548497
5144.112056203842,1040.7000273976553
5144.124087923648,1039.6059859721038
5144.133049480467,1037.7892354306612
5144.145081200271,1033.5382443993237
5144.154042757091,1028.7539652843132
5144.163087291286,1022.3955408076407
5144.175036033711,1011.8489868853262
5144.184080567907,1002.912126842926
5144.196029310331,991.1201372181939
5144.205073844527,983.2428573889187
5144.21702258695,974.8410999847804
5144.226067121146,969.6513056059284
5144.235028677962,964.2026027480225
5144.247060397763,953.6298355997615
5144.2560219545785,941.3790569394181
5144.268053674378,917.7667909772257
5144.277015231195,896.2906254422392
5144.289046950994,867.0299667100705
5144.29800850781,849.8527253664616
5144.310040227607,839.2369416593821
5144.319001784424,843.1868877332585
5144.327963341238,856.9516817907314
5144.339995061036,886.7663663942719
5144.348956617848,912.2783668650412
5144.360988337646,943.097611302859
5144.370032871838,958.8730827600617
5144.381981614254,966.662652053174
5144.391026148446,962.8975338057172
5144.399987705258,953.2655201753973
5144.412019425053,937.3175833754311
5144.420980981866,928.0368888459591
5144.43301270166,925.2515599368257
5144.441974258472,932.0683990756564
5144.454005978266,952.1785787744973
5144.462967535077,972.2727056369421
5144.4749992548695,1000.8116024839944
5144.483960811681,1019.566447963694
5144.492922368491,1034.3751770523265
5144.504954088283,1047.2242087724082
5144.513915645092,1051.8650161527808
5144.525947364885,1053.1919112873995
5144.534908921693,1051.7913411266684
5144.546940641484,1048.5670394302251
5144.5559021982945,1046.216279660832
5144.56494673248,1044.5579064657368
5144.576978452269,1044.0672600876187
5144.585940009079,1044.9582629796216
5144.597971728866,1047.2161491269417
5144.606933285674,1048.9006185232959
5144.618965005463,1049.7094558682331
5144.627926562272,1048.337544368598
5144.639958282057,1042.7534412127186
5144.6489198388645,1035.3507567530316
5144.65788139567,1024.8867985081467
5144.6699131154555,1005.4862156567675
5144.678874672262,986.6933541136896
5144.690906392049,955.0834747692525
5144.699867948855,927.5082451332241
5144.71189966864,887.7470730997179
5144.7208612254435,860.2308565067794
5144.732892945229,833.1854479655842
5144.741854502035,825.5483512722412
5144.750899036215,830.8808475616975
5144.762847778621,857.8296293932989
5144.771892312802,889.4436708462288
5144.783924032586,937.1635335828481
5144.792885589387,970.8095300175262
5144.8049173091695,1005.8514277357938
5144.813878865973,1022.8750472516798
5144.822840422776,1032.4789169719481
5144.834872142556,1037.155343967797
5144.843833699358,1037.2072213659385
5144.8558654191365,1035.9956086720035
5144.86482697594,1035.2046164621727
5144.876858695719,1034.5303630097903
5144.88582025252,1034.0015599527649
5144.8978519723,1032.9789838867212
5144.9068135291,1032.2977422527965
5144.915858063278,1032.313469552831
5144.9278068056765,1034.6463221553547
5144.936851339855,1038.763763962702
5144.948800082255,1047.2910174579056
5144.957844616431,1055.3925275754887
5144.9697933588295,1066.4968774760318
5144.978837893007,1074.0608171211659
5144.987799449806,1079.8288296761912
5144.99983116958,1083.8579187000219
5145.0087927263785,1082.9648614404268
5145.020824446155,1074.233450608057
5145.029786002951,1059.6207774625823
5145.041817722725,1024.8359176031797
5145.050779279522,985.5246954626671
5145.062810999295,914.6144204512382
5145.071772556091,851.9398637768979
5145.080817090265,785.9255426880261
5145.09276583266,708.2085848962237
5145.101810366833,665.7634035630831
5145.1137591092265,643.602879535123
5145.1228036434,654.7092263654822
5145.134752385794,702.9943544978148
5145.143796919965,757.6453230021995
5145.15275847676,818.698498974995
