wavelength,flux
5139.460261388102,4216.5917676932295
5139.4722931080605,3801.7433404902113
5139.481254664994,3509.53781394806
5139.493286384951,3139.2895149922406
5139.502247941885,2879.6346993629486
5139.514279661843,2552.190958986146
5139.523241218776,2323.7494645666447
5139.532285753089,2106.288924683213
5139.5442344956655,1838.7491502392113
5139.553279029977,1650.8623156153844
5139.565227772553,1421.50079706619
5139.574272306862,1261.8378946701487
5139.58622104944,1068.871445656332
5139.59526558375,936.082702429967
5139.607297303704,776.6952145529795
5139.616258860635,670.4637796525831
5139.625220417567,574.6197372645283
5139.637252137519,461.84816694762276
5139.646213694449,389.3834077215556
5139.658245414402,307.10290497192227
5139.667206971331,256.6800391371104
5139.679238691284,203.09503438310526
5139.6882002482125,173.37667217862176
5139.697244782519,151.93081854201597
5139.709193525093,136.34034750511734
5139.718238059399,133.86207764727703
5139.73018680197,142.43810577413362
5139.739231336277,157.57768126585097
5139.751180078847,188.7161947424178
5139.760224613156,220.35450868888634
5139.772173355724,269.92856536189595
5139.781217890029,311.08990066894455
5139.790179446957,351.4177014941227
5139.802211166904,400.87479616172124
5139.81117272383,430.3062341844115
5139.823204443777,457.7380296793791
5139.832166000702,468.63363808317354
5139.8441977206485,473.52174434884347
5139.8531592775735,473.20983474198505
5139.862203811878,473.0645175756799
5139.874152554446,478.15752922280666
5139.883197088747,488.54421064706514
5139.895145831313,511.4093374335098
5139.904190365616,534.3515882366017
5139.916139108182,567.7954115154997
5139.925183642483,592.9113147822142
5139.9371323850455,622.2784171790624
5139.9461769193485,640.9104431018671
5139.955138476272,656.027028057911
5139.967170196214,672.2961987183146
5139.976131753137,681.9236107743651
5139.988163473076,692.6525427706226
5139.99712503,699.2341718485405
5140.009156749939,706.6557398608103
5140.018118306861,711.153620382942
5140.027162841161,714.9813385614257
5140.039111583721,718.9917150194901
5140.048156118021,721.4032673680728
5140.0601048605795,723.8851080819709
5140.06914939488,725.3697316834148
5140.081098137439,726.9192235358823
5140.090142671737,727.8647650266571
5140.102091414296,728.8342625539706
5140.111135948594,729.3560634401838
5140.120097505512,729.6633143017327
5140.132129225448,729.756899989313
5140.1410907823665,729.6496467769964
5140.153122502302,729.4954523181525
5140.16208405922,729.6050975086873
5140.174115779156,730.4308567010629
5140.183077336073,731.7455200044758
5140.195109056007,734.6057303135915
5140.204070612925,737.4572156102
5140.2131151472195,740.8417096571567
5140.225063889773,745.6545707924112
5140.234108424068,749.3047086739768
5140.246057166623,753.6935268616272
5140.255101700916,756.5462926273594
5140.267050443469,759.4880144772216
5140.276094977763,761.0658063081075
5140.285056534677,762.0169290732716
5140.297088254609,762.2698677449896
5140.306049811523,761.5876682376501
5140.318081531454,759.342879414033
5140.327043088367,756.680326859068
5140.339074808296,751.9267522125399
5140.34803636521,747.931472096401
5140.36006808514,742.7199890470785
5140.369029642052,739.7039640114357
5140.378074176342,737.9055090939656
5140.390022918889,738.0307623095285
5140.3990674531815,740.0884380758789
5140.41101619573,744.9461082294001
5140.420060730021,749.7264843730973
5140.432009472569,756.4803967649533
5140.4410540068575,761.4187712769775
5140.450015563768,765.7656563113175
5140.462047283694,770.6000769967017
5140.471008840603,773.3925214262655
5140.483040560529,776.263497972985
5140.492002117438,777.8439512434952
5140.504033837362,779.4599003203723
5140.5129953942715,780.3763551190518
5140.525027114195,781.3634382647692
5140.533988671104,781.9379625783366
5140.54303320539,782.374039598725
5140.554981947934,782.6203271073335
5140.564026482221,782.4577900777591
5140.575975224762,781.6667761383559
5140.585019759051,780.6288821269015
5140.596968501592,778.8970137067453
5140.606013035877,777.5704841231094
5140.614974592783,776.552311607215
5140.627006312703,776.0639755083571
5140.635967869609,776.5662144842978
5140.647999589529,778.4550644807482
5140.656961146435,780.5930178119755
5140.668992866353,784.0871897292695
5140.6779544232595,786.8039430013595
5140.689986143177,790.2831964411247
5140.698947700082,792.5309278732036
5140.707992234362,794.4679612237536
5140.719940976901,796.4537344993162
5140.728985511184,797.5777510848142
5140.74093425372,798.6168011214718
5140.749978788003,799.1326195007472
5140.76192753054,799.5144919683884
5140.770972064822,799.6256897576308
5140.782920807357,799.6198407897139
5140.791965341638,799.5926553008164
5140.80092689854,799.6564130760439
5140.812958618455,800.0835112944469
5140.821920175355,800.7750082423103
5140.833951895269,802.292706164886
5140.842913452169,803.7903781477795
5140.854945172081,806.1103997519543
5140.863906728982,807.8462306170605
5140.872951263261,809.4764893756079
5140.884900005794,811.2443670248726
5140.893944540072,812.2633151468345
5140.905893282604,813.2061680501538
5140.914937816881,813.6985055359776
5140.926886559413,814.1787990230104
5140.93593109369,814.5058183934536
5140.947879836222,814.9768562754462
5140.956924370498,815.4017200022073
5140.965885927395,815.8781497635928
5140.977917647304,816.5877766497006
5140.9868792042025,817.1221901672502
5140.9989109241105,817.7899231114892
5141.0078724810055,818.1852505063553
5141.0199042009135,818.4973219960285
5141.0288657578085,818.5075837704609
5141.037910292083,818.3076271542649
5141.0498590346115,817.7934378074204
5141.0589035688845,817.3439498377544
5141.070852311412,816.9759642023162
5141.0798968456875,817.0754806018238
5141.091845588213,817.8925250244266
5141.100890122485,819.0263432687193
5141.112838865011,820.9530259601268
5141.121883399284,822.4874056909537
5141.130844956178,823.7998971744709
5141.142876676079,824.9321302816346
5141.151838232971,825.1259880762291
5141.163869952875,824.473634074729
5141.172831509768,823.427141911084
5141.1848632296715,821.6238188509338
5141.193824786562,820.3515331907729
5141.202869320831,819.415611282544
5141.214818063353,819.0822350037566
5141.223862597622,819.6185756768293
5141.235811340145,821.2512680731771
5141.244855874415,822.9943133451911
5141.256804616936,825.586238167256
5141.265849151204,827.5908052765507
5141.277797893724,830.0811218983596
5141.286842427992,831.8082713257592
5141.295803984883,833.3231110609754
5141.30783570478,835.013754492447
5141.316797261668,835.9196720705228
5141.328828981566,836.5696859725764
5141.337790538454,836.5559289019941
5141.34982225835,835.7802732685757
5141.358783815239,834.5531592682751
5141.370815535135,831.7493875192716
5141.379777092022,828.5756962847026
5141.388821626289,824.1425459372515
5141.400770368803,816.2959287574249
5141.409814903069,808.9204891085457
5141.421763645584,798.2442752391731
5141.430808179848,790.3283837512645
5141.4427569223635,781.9162083014019
5141.451801456627,778.0486599387959
5141.460763013514,776.9256416942172
5141.472794733406,779.5905208384288
5141.48175629029,784.0417273586272
5141.493788010182,791.8094372617721
5141.502749567066,797.6003464796424
5141.514781286956,804.0214791819211
5141.523742843841,807.1932540837439
5141.535774563731,809.522279513743
5141.544736120615,810.3942383910017
5141.553780654876,811.2968847753808
5141.565729397385,813.5676881168914
5141.5747739316475,816.6289462497105
5141.5867226741575,822.4451220971175
5141.595767208418,827.8595032157533
5141.607715950928,835.3604302935258
5141.616760485187,840.7466603941175
5141.6257220420675,845.3667928317183
5141.637753761956,850.2467220163345
5141.646715318837,852.8365648192653
5141.658747038722,855.1747899298106
5141.6677085956035,856.2232678325593
5141.679740315488,856.990378159683
5141.688701872369,857.2075467468342
5141.700733592253,857.1750909869303
5141.709695149131,856.9697606529802
5141.718656706012,856.6202764681283
5141.730688425894,855.8518250926544
5141.739649982773,854.909460258883
5141.751681702656,852.8747787929425
5141.760643259534,850.6001954006093
5141.772674979417,846.5494979603646
5141.781719513672,842.9450264532667
5141.790681070551,839.329806536821
5141.802712790431,835.0812617620096
5141.811674347307,832.8608157933845
5141.823706067188,831.3105157920143
5141.832667624065,830.9923755004809
5141.844699343944,830.7759865986525
5141.853660900821,829.9498864662809
5141.8656926207,826.434833551462
5141.874654177575,820.7287494038434
5141.8836157344485,810.6396597974037
5141.895647454328,786.7337134309468
5141.9046090112015,757.8663373677258
5141.9166407310795,701.2440510984048
5141.9256022879545,644.9979468377874
5141.937634007831,555.9816410719925
5141.946595564706,484.7400963603781
5141.958627284579,394.92346584581014
5141.967588841454,338.7187259419517
5141.976633375703,296.6237129321798
5141.98866509558,267.86328526509493
5141.997626652451,267.8217975023291
5142.009658372325,296.699617129358
5142.018619929198,338.7937609943176
5142.030651649072,417.46800859351777
5142.039613205941,487.22051017508227
5142.048574762814,560.9861944176815
5142.060606482686,654.2017895646974
5142.0695680395565,713.7342692621087
5142.081599759428,774.011714125245
5142.090561316299,804.6928137730009
5142.102593036168,829.6361546562922
5142.111554593039,839.8771258147309
5142.12358631291,847.0679092463705
5142.13254786978,850.0933568519573
5142.141592404026,852.4590371234191
5142.153541146517,855.5961697929245
5142.162585680763,858.3145343815983
5142.174534423254,862.2016315664131
5142.1835789575,865.074740111638
5142.195610677368,867.9977531725214
5142.2045722342355,868.8972518903402
5142.213533791101,868.1038082295098
5142.225565510969,863.5500933640966
5142.234527067836,857.3628306020252
5142.246558787702,845.8154583553724
5142.255520344567,835.9437660125623
5142.267552064433,823.8817205946357
5142.276513621299,817.6479237500963
5142.288545341164,815.1403380502695
5142.2975068980295,817.8903731987104
5142.306551432272,823.929307299356
5142.318500174758,834.5760189346721
5142.327544709001,842.8928558977484
5142.339493451486,852.1261208691146
5142.348537985728,857.3725197756369
5142.360486728212,862.2540886990043
5142.369531262454,865.0707187493703
5142.378492819315,867.5723806404119
5142.390524539179,870.9306686303386
5142.399486096041,873.3950018632041
5142.411517815902,876.3501351865998
5142.420479372763,877.881371781297
5142.432511092622,878.4559826954295
5142.441472649484,877.3420614837386
5142.453504369344,873.238612877379
5142.4624659262045,868.035157308653
5142.471510460443,861.1192591682301
5142.483459202924,850.4476009403857
5142.492503737163,842.2384983437341
5142.504452479642,833.1884398247506
5142.51349701388,828.5654274472257
5142.52544575636,825.9229146557888
5142.534490290595,826.1050840583272
5142.5464390330735,828.0298719095445
5142.555483567311,829.9498941550291
5142.564445124169,831.804784951871
5142.576476844026,834.1941253003939
5142.5854384008835,836.0283161352958
5142.597470120738,838.7034607878539
5142.6064316775955,840.5096322092843
5142.618463397449,841.5245663354133
5142.627424954306,839.925078819745
5142.6364694885415,834.770472245738
5142.648418231015,819.8186331844165
5142.65746276525,799.8821400485698
5142.6694115077225,759.5513510609312
5142.678456041958,717.0620872285767
5142.69040478443,647.2384360707406
5142.699449318665,586.5484284328077
5142.7113980611375,504.2657347632997
5142.72044259537,445.06587673383547
5142.729404152225,393.76687668172406
5142.7414358720725,338.4801319508443
5142.750397428927,308.720619218973
5142.762429148777,281.8581107105649
5142.7713907056295,270.6914443739665
5142.783422425479,266.42473517859713
5142.7923839823325,271.971865715341
5142.801428516562,286.57645363497204
5142.813377259032,321.48752522975184
5142.822421793261,360.91447178420026
5142.834370535731,427.68228018136097
5142.8434150699595,486.5696160220254
5142.8553638124295,567.0578438957422
5142.864408346657,625.337924413513
5142.876357089124,691.2469415579494
5142.885401623354,730.7480125963388
5142.894363180203,759.8014348523844
5142.906394900048,784.5449500780403
5142.915356456897,792.7930745942656
5142.927388176742,790.7261700915761
5142.936349733591,778.5643331650507
5142.948381453434,745.6234951169298
5142.957343010282,708.1822823891939
5142.9693747301235,641.0226700781072
5142.978336286973,582.654554189012
5142.987380821199,520.4193316312934
5142.999329563662,443.552534563377
5143.008374097889,395.16890087502117
5143.0203228403525,351.73406281269746
5143.0293673745755,335.59133794124205
5143.041316117038,334.65307185201624
5143.050360651261,345.24141480357343
5143.059322208108,360.335411172008
5143.071353927948,379.63293978529015
5143.080315484793,387.22925555101165
5143.092347204632,382.4943482859188
5143.101308761477,366.37137696152837
5143.1133404813145,329.40413219100753
5143.122302038159,294.41769365038886
5143.1343337579965,243.4697506932908
5143.143295314839,207.75865904516567
5143.152339849062,176.2659065843859
5143.164288591521,145.7556632211294
5143.173333125742,132.2350930892089
5143.185281868198,128.5695638037996
5143.1943264024185,137.22148873372961
5143.206275144875,164.86996446226132
5143.215319679095,199.07721098131927
5143.224281235937,243.84337566323356
5143.236312955771,319.98767806950804
5143.245274512613,384.6989575495972
5143.257306232446,476.97290621379153
5143.266267789287,543.3358556825685
5143.278299509119,624.2270123957554
5143.28726106596,674.356149654309
5143.299292785791,727.8242673931004
5143.308254342632,757.0869091408446
5143.317298876848,779.1865269185599
5143.329247619302,798.6562499606762
5143.338292153519,808.2042953834635
5143.35024089597,816.7801678627242
5143.359285430188,822.4242869125726
5143.371234172638,831.2380592269081
5143.380278706855,840.1173361720014
5143.389240263692,850.8360595577436
5143.401271983521,867.5090903110155
5143.410233540359,880.2683367008854
5143.422265260187,896.3309449550379
5143.431226817022,906.4218104125005
5143.44325853685,917.2261238287348
5143.452220093686,923.182334425684
5143.4642518135115,928.9367028843056
5143.473213370347,931.6481086484599
5143.482257904561,933.0004903091229
5143.494206647009,932.0396565408677
5143.503251181222,928.5570967284146
5143.515199923669,919.4419494483603
5143.524244457882,908.8356153234963
5143.536193200326,891.1118482615952
5143.545237734539,876.4993760027866
5143.5571864769845,859.7114861209602
5143.566231011197,851.5963071087699
5143.575192568029,849.4401886423093
5143.587224287851,856.6778999851097
5143.5961858446835,868.6904767949252
5143.608217564505,890.6392289927486
5143.617179121337,908.2096462786119
5143.629210841158,930.1199669023872
5143.63817239799,943.3055079826116
5143.6472169322,953.6440577790514
5143.659165674641,962.8639985434742
5143.668210208851,967.3274681252371
5143.680158951291,970.9808868970242
5143.6892034855,972.74746632832
5143.70115222794,974.3448025289705
5143.7101967621475,975.2521525704369
5143.722145504588,976.1728323151912
5143.731190038795,976.659584846463
5143.7401515956235,976.8751942732562
5143.7521833154415,976.5229386077659
5143.761144872271,975.5752026655034
5143.773176592086,973.0826338441585
5143.782138148914,970.2729164533338
5143.794169868729,965.3547887539303
5143.803131425558,961.288395082356
5143.812175959762,957.2883946698246
5143.824124702199,953.2113394654353
5143.833169236404,951.6489578730619
5143.845117978839,952.2038197478428
5143.854162513044,954.60051162121
5143.86611125548,959.6489128765235
5143.875155789683,964.0092293241446
5143.887104532117,968.4730699513606
5143.8961490663205,969.2691702013108
5143.905110623145,966.3652213407138
5143.917142342957,954.643841352715
5143.926103899782,939.5766843730182
5143.938135619593,911.8255260804011
5143.947097176416,888.678281557423
5143.9591288962265,860.1375424017175
5143.968090453049,845.8726050768463
5143.977134987251,840.5011807125254
5143.989083729682,848.9910958563341
5143.998128263883,865.8594590655927
5144.010077006312,896.0659610301885
5144.019121540513,920.4457906765592
5144.031070282942,948.3493182770807
5144.040114817143,964.0699224597744
5144.052063559571,976.4431374039344
5144.061108093771,980.1189266893341
5144.070069650592,979.6815049317019
5144.082101370396,973.9839662022965
5144.091062927218,966.8684419807223
5144.103094647023,954.8038058236986
5144.112056203842,945.4583393026114
5144.124087923648,934.6662830017564
5144.133049480467,929.6787899127338
5144.145081200271,928.4427940241641
5144.154042757091,931.6742036869866
5144.163087291286,937.8260509942054
5144.175036033711,948.3379513971366
5144.184080567907,956.6693881186422
5144.196029310331,966.4801514805192
5144.205073844527,972.7102196169668
5144.21702258695,979.4860952072939
5144.226067121146,983.9924383353779
5144.235028677962,988.1562017151324
5144.247060397763,993.5649696866733
5144.2560219545785,997.3294669967651
5144.268053674378,1001.8776699308314
5144.277015231195,1004.6440318966706
5144.289046950994,1007.3776989402678
5144.29800850781,1008.5586513899714
5144.310040227607,1009.0295635524412
5144.319001784424,1008.6581877558957
5144.327963341238,1007.8730712689496
5144.339995061036,1006.6446419928996
5144.348956617848,1005.9559717480016
5144.360988337646,1005.7692930291447
5144.370032871838,1006.3076210848895
5144.381981614254,1007.8117918361726
5144.391026148446,1009.366810234015
5144.399987705258,1011.0425202757051
5144.412019425053,1013.2934225477111
5144.420980981866,1014.8565982656128
5144.43301270166,1016.8470422827185
5144.441974258472,1018.2801488579917
5144.454005978266,1020.2620196565383
5144.462967535077,1021.7813996461039
5144.4749992548695,1023.8947778664776
5144.483960811681,1025.4520079562374
5144.492922368491,1026.9775684438243
5144.504954088283,1028.881899651547
5144.513915645092,1030.1829715645554
5144.525947364885,1031.7150235878078
5144.534908921693,1032.685077499715
5144.546940641484,1033.6747989496002
5144.5559021982945,1034.1264069557967
5144.56494673248,1034.2676808685817
5144.576978452269,1033.8987404537884
5144.585940009079,1033.2129195487378
5144.597971728866,1031.9035435410499
5144.606933285674,1030.843356165604
5144.618965005463,1029.763478608946
5144.627926562272,1029.5017228326117
5144.639958282057,1030.1616327128154
5144.6489198388645,1031.403255732427
5144.65788139567,1033.1477794523853
5144.6699131154555,1035.8100179418693
5144.678874672262,1037.699729730057
5144.690906392049,1039.649270707445
5144.699867948855,1040.5105065363246
5144.71189966864,1040.7310456231055
5144.7208612254435,1040.1211189590722
5144.732892945229,1038.0269887054674
5144.741854502035,1035.2172899673906
5144.750899036215,1031.0288846121516
5144.762847778621,1023.1946375995809
5144.771892312802,1015.521890656342
5144.783924032586,1003.8637818464006
5144.792885589387,994.8741295263403
5144.8049173091695,984.0084511891897
5144.813878865973,977.3437941366744
5144.822840422776,971.9027536854251
5144.834872142556,964.8405085044642
5144.843833699358,957.7773097711704
5144.8558654191365,942.9018410080055
5144.86482697594,926.4806887492805
5144.876858695719,898.670335142359
5144.88582025252,876.3683125003706
5144.8978519723,851.376208818878
5144.9068135291,840.8454792195456
5144.915858063278,840.1656853032601
5144.9278068056765,855.0531674897717
5144.936851339855,876.0508469051806
5144.948800082255,909.5439759453168
5144.957844616431,933.9697102421934
5144.9697933588295,957.4580454503055
5144.978837893007,965.8102657186189
5144.987799449806,965.4877599128845
5144.99983116958,954.4826950955928
5145.0087927263785,942.5935883434335
5145.020824446155,928.7977062894109
5145.029786002951,924.7117566286969
5145.041817722725,930.9514375951285
5145.050779279522,944.2922033186214
5145.062810999295,969.9689156195828
5145.071772556091,991.4018194029672
5145.080817090265,1011.7103098242912
5145.09276583266,1032.9703646484313
5145.101810366833,1043.8940810929591
5145.1137591092265,1051.5316160691611
5145.1228036434,1053.2547465620844
5145.134752385794,1052.008710778636
5145.143796919965,1049.6878472854266
5145.15275847676,1047.2025031328096
