wavelength,flux
5139.460261388102,404.66534269545906
5139.4722931080605,441.31904996132096
5139.481254664994,459.40614402348774
5139.493286384951,471.33356446622975
5139.502247941885,473.58390486619516
5139.514279661843,472.9330319570164
5139.523241218776,473.8681878793079
5139.532285753089,479.1205790960894
5139.5442344956655,495.1478420876811
5139.553279029977,514.0641805924264
5139.565227772553,545.437304288421
5139.574272306862,571.0067142051802
5139.58622104944,603.3927824012943
5139.59526558375,624.7956648906984
5139.607297303704,648.2339988274726
5139.616258860635,662.0809662022833
5139.625220417567,673.521099088679
5139.637252137519,685.8613740144219
5139.646213694449,693.4820194717315
5139.658245414402,701.9580830500926
5139.667206971331,707.2277401318582
5139.679238691284,712.9854784666663
5139.6882002482125,716.4639966315684
5139.697244782519,719.322728190325
5139.709193525093,722.3231573832882
5139.718238059399,724.0891635820628
5139.73018680197,725.9400898545821
5139.739231336277,727.0486326409128
5139.751180078847,728.2282758917306
5139.760224613156,728.9109350980746
5139.772173355724,729.521440174419
5139.781217890029,729.7338202988846
5139.790179446957,729.7499816141933
5139.802211166904,729.5819074281463
5139.81117272383,729.4932671103378
5139.823204443777,729.7854095291646
5139.832166000702,730.5523078791709
5139.8441977206485,732.5924697408707
5139.8531592775735,734.9147125627984
5139.862203811878,737.8645758184483
5139.874152554446,742.4499535912644
5139.883197088747,746.1260458578413
5139.895145831313,750.8623313558766
5139.904190365616,754.0833778872607
5139.916139108182,757.6535765368528
5139.925183642483,759.721819413695
5139.9371323850455,761.574024803667
5139.9461769193485,762.2430560077755
5139.955138476272,762.2300825704547
5139.967170196214,760.9874623393362
5139.976131753137,759.0681948187977
5139.988163473076,755.1664689005454
5139.99712503,751.4586890386518
5140.009156749939,746.0581413430331
5140.018118306861,742.3051651436193
5140.027162841161,739.3939352294716
5140.039111583721,737.6131211778095
5140.048156118021,738.2041962872504
5140.0601048605795,741.501095834939
5140.06914939488,745.5231133859867
5140.081098137439,752.0103929679483
5140.090142671737,757.1367677669153
5140.102091414296,763.4692800750531
5140.111135948594,767.5714428964627
5140.120097505512,770.9733379597105
5140.132129225448,774.4908439231685
5140.1410907823665,776.4773895489587
5140.153122502302,778.4602381218361
5140.16208405922,779.5821035411864
5140.174115779156,780.7462471635972
5140.183077336073,781.4403688277305
5140.195109056007,782.159433632704
5140.204070612925,782.5076260530608
5140.2131151472195,782.6182872698975
5140.225063889773,782.2646722278024
5140.234108424068,781.55148919358
5140.246057166623,780.0673735791146
5140.255101700916,778.7179140474087
5140.267050443469,777.0544846375283
5140.276094977763,776.2492420256134
5140.285056534677,776.0829469393691
5140.297088254609,777.0734807116928
5140.306049811523,778.68718769482
5140.318081531454,781.7505369590573
5140.327043088367,784.4202345332288
5140.339074808296,788.0509153223468
5140.34803636521,790.576834050261
5140.36006808514,793.4692379716184
5140.369029642052,795.2180093649524
5140.378074176342,796.6187440988409
5140.390022918889,797.9856891522985
5140.3990674531815,798.6967134619721
5140.41101619573,799.2983595783382
5140.420060730021,799.5368136605612
5140.432009472569,799.637314401484
5140.4410540068575,799.61494858409
5140.450015563768,799.5932472095482
5140.462047283694,799.7506415959401
5140.471008840603,800.1495214907773
5140.483040560529,801.2293679959217
5140.492002117438,802.4628574999938
5140.504033837362,804.573609121494
5140.5129953942715,806.3287274543809
5140.525027114195,808.6241558462074
5140.533988671104,810.1366120857222
5140.54303320539,811.3951737122138
5140.554981947934,812.6332998461407
5140.564026482221,813.2804906341262
5140.575975224762,813.8781128594899
5140.585019759051,814.2223478249599
5140.596968501592,814.6588531504498
5140.606013035877,815.0296628856738
5140.614974592783,815.4581756452117
5140.627006312703,816.1194695045476
5140.635967869609,816.6550061111903
5140.647999589529,817.3659988360803
5140.656961146435,817.8453266062295
5140.668992866353,818.3272043519946
5140.6779544232595,818.5099449855601
5140.689986143177,818.4395631233664
5140.698947700082,818.1561173099263
5140.707992234362,817.732345807695
5140.719940976901,817.1719264282959
5140.728985511184,816.9665186413221
5140.74093425372,817.265001641778
5140.749978788003,818.0208754814415
5140.76192753054,819.6512704665976
5140.770972064822,821.1616365113343
5140.782920807357,823.1277474735645
5140.791965341638,824.2930856866274
5140.80092689854,824.9894477429079
5140.812958618455,825.0105485888234
5140.821920175355,824.3643399442573
5140.833951895269,822.8218050718808
5140.842913452169,821.4522351482816
5140.854945172081,819.8584751445414
5140.863906728982,819.1694420572194
5140.872951263261,819.1152445983413
5140.884900005794,820.0747030145683
5140.893944540072,821.4666953436697
5140.905893282604,823.866104561315
5140.914937816881,825.858765022097
5140.926886559413,828.4744925321476
5140.93593109369,830.3240822987989
5140.947879836222,832.5306299368224
5140.956924370498,833.966572707969
5140.965885927395,835.1474864684259
5140.977917647304,836.2267897220023
5140.9868792042025,836.593010191061
5140.9989109241105,836.3872866224988
5141.0078724810055,835.6578274387384
5141.0199042009135,833.735827969899
5141.0288657578085,831.4025445504934
5141.037910292083,828.0485556968443
5141.0498590346115,821.6887422574644
5141.0589035688845,815.355195628648
5141.070852311412,805.2887265254874
5141.0798968456875,797.1308904843377
5141.091845588213,787.0734149757118
5141.100890122485,781.2429715147927
5141.112838865011,777.182922825308
5141.121883399284,777.3548827112036
5141.130844956178,780.0623387679499
5141.142876676079,786.6396687199854
5141.151838232971,792.578316972263
5141.163869952875,800.0915981038996
5141.172831509768,804.5113622068503
5141.1848632296715,808.2274845874834
5141.193824786562,809.6593387882468
5141.202869320831,810.5011327242506
5141.214818063353,811.8960428229552
5141.223862597622,813.9144439073649
5141.235811340145,818.434299893543
5141.244855874415,823.1512961961209
5141.256804616936,830.4615576558
5141.265849151204,836.130204445947
5141.277797893724,842.9858528375356
5141.286842427992,847.2644513436251
5141.295803984883,850.6312209287163
5141.30783570478,853.7961221982906
5141.316797261668,855.3404332437638
5141.328828981566,856.566136677528
5141.337790538454,857.0333795033213
5141.34982225835,857.2325682766744
5141.358783815239,857.1564305019656
5141.370815535135,856.8230399967923
5141.379777092022,856.3984730381943
5141.388821626289,855.7428559282802
5141.400770368803,854.3100749382708
5141.409814903069,852.5972503077595
5141.421763645584,849.2945653933809
5141.430808179848,846.0685799454611
5141.4427569223635,841.248208175936
5141.451801456627,837.7109322747914
5141.460763013514,834.7375849570528
5141.472794733406,832.1356018017977
5141.48175629029,831.237831070108
5141.493788010182,830.9477202911079
5141.502749567066,830.7200179870431
5141.514781286956,829.1088015127921
5141.523742843841,825.87334512096
5141.535774563731,816.5913253905552
5141.544736120615,803.8197726362947
5141.553780654876,783.294304216085
5141.565729397385,740.3370368594434
5141.5747739316475,693.9850427331057
5141.5867226741575,614.9725931409192
5141.595767208418,545.9894615402643
5141.607715950928,451.6857061089772
5141.616760485187,386.268703333006
5141.6257220420675,331.8420871205842
5141.637753761956,282.7669446085215
5141.646715318837,266.79705304183426
5141.658747038722,274.277044478743
5141.6677085956035,301.32258539011184
5141.679740315488,364.143735044568
5141.688701872369,426.29710838115324
5141.700733592253,522.2575708799476
5141.709695149131,595.2479478720501
5141.718656706012,662.7274245637308
5141.730688425894,737.7135957664487
5141.739649982773,778.7710022514382
5141.751681702656,815.3876966352209
5141.760643259534,831.3351066753427
5141.772674979417,843.0694348312038
5141.781719513672,847.5756671679517
5141.790681070551,850.4511175471708
5141.802712790431,853.5402147277589
5141.811674347307,855.9619711044924
5141.823706067188,859.6820672281251
5141.832667624065,862.6231071068314
5141.844699343944,866.2757009822192
5141.853660900821,868.1963508940293
5141.8656926207,868.7628977855229
5141.874654177575,866.9774834060257
5141.8836157344485,862.8568661742648
5141.895647454328,853.6212808617804
5141.9046090112015,844.5140972858885
5141.9166407310795,831.3516231619507
5141.9256022879545,822.8661981216062
5141.937634007831,815.9372495292739
5141.946595564706,815.2889214972809
5141.958627284579,820.418105218717
5141.967588841454,827.4563156182608
5141.976633375703,835.7917476613836
5141.98866509558,846.4813741684812
5141.997626652451,852.970735009851
5142.009658372325,859.342103028113
5142.018619929198,862.6889957243808
5142.030651649072,866.2822353559039
5142.039613205941,868.7576933336494
5142.048574762814,871.2695330636927
5142.060606482686,874.5232211100001
5142.0695680395565,876.6000562414412
5142.081599759428,878.3148194250016
5142.090561316299,878.3911584872894
5142.102593036168,876.2452760092245
5142.111554593039,872.6392029283691
5142.12358631291,864.9326880346484
5142.13254786978,857.4937174154171
5142.141592404026,849.2400969033856
5142.153541146517,838.7404543789744
5142.162585680763,832.3874274624718
5142.174534423254,827.2020258236903
5142.1835789575,825.8501698308615
5142.195610677368,826.6424597565165
5142.2045722342355,828.2990910502855
5142.213533791101,830.2093813421818
5142.225565510969,832.6637356063435
5142.234527067836,834.4378747040137
5142.246558787702,836.9717541996324
5142.255520344567,838.9727003917365
5142.267552064433,841.1467647876699
5142.276513621299,841.4600747398729
5142.288545341164,838.0029966594847
5142.2975068980295,830.7437983096847
5142.306551432272,817.4302682433606
5142.318500174758,787.611598640446
5142.327544709001,754.0018116837209
5142.339493451486,694.0513205100999
5142.348537985728,638.7048523112529
5142.360486728212,557.400537745336
5142.369531262454,495.3317418935198
5142.378492819315,437.5083000457239
5142.390524539179,372.04489309182276
5142.399486096041,333.80619460016106
5142.411517815902,297.4647149649388
5142.420479372763,279.8883918391256
5142.432511092622,267.7329124867807
5142.441472649484,266.7137634523823
5142.453504369344,277.74011414326304
5142.4624659262045,296.7778675454977
5142.471510460443,326.57746075788174
5142.483459202924,382.7920145015674
5142.492503737163,435.98927121790996
5142.504452479642,515.0777859360742
5142.51349701388,575.8931826723514
5142.52544575636,650.3270233394697
5142.534490290595,697.6603742112354
5142.5464390330735,745.6825285020527
5142.555483567311,770.5128423491185
5142.564445124169,786.20299999905
5142.576476844026,793.8113104560194
5142.5854384008835,789.6131272122092
5142.597470120738,768.9744509775492
5142.6064316775955,741.0797267030548
5142.618463397449,685.9941233264707
5142.627424954306,633.2061596147313
5142.6364694885415,573.5318730567287
5142.648418231015,491.97134681244177
5142.65746276525,435.7200039801195
5142.6694115077225,376.9029224780393
5142.678456041958,348.43479715361417
5142.69040478443,332.8521550877815
5142.699449318665,335.73807889933335
5142.7113980611375,352.10323180854755
5142.72044259537,367.9035247509069
5142.729404152225,381.16858556920477
5142.7414358720725,387.6640723313006
5142.750397428927,380.88621924276333
5142.762429148777,354.79959330882417
5142.7713907056295,324.7759270463145
5142.783422425479,276.1641635796641
5142.7923839823325,238.23488284127058
5142.801428516562,202.7150250307776
5142.813377259032,163.8408616935819
5142.822421793261,143.19114023093272
5142.834370535731,129.01675775797148
5142.8434150699595,129.22227156100743
5142.8553638124295,144.85080429401341
5142.864408346657,169.25436576568976
5142.876357089124,218.99822013821222
5142.885401623354,269.40201960321525
5142.894363180203,328.82305654892264
5142.906394900048,417.79100221275473
5142.915356456897,486.6111231528444
5142.927388176742,573.974974183641
5142.936349733591,631.9081087241447
5142.948381453434,695.5322328353896
5142.957343010282,732.5054524732215
5142.9693747301235,768.5778194273031
5142.978336286973,787.2486830654286
5142.987380821199,800.3278217888981
5142.999329563662,811.6230749748262
5143.008374097889,817.6277902234172
5143.0203228403525,825.2819143761694
5143.0293673745755,832.4416372457283
5143.041316117038,844.998713308025
5143.050360651261,856.6477943945231
5143.059322208108,869.3436030447576
5143.071353927948,886.3164243853438
5143.080315484793,897.8846697263418
5143.092347204632,910.7042391055118
5143.101308761477,918.1824533281928
5143.1133404813145,925.5476842836498
5143.122302038159,929.4069970846318
5143.1343337579965,932.4880505945263
5143.143295314839,933.0666423341988
5143.152339849062,931.6807111586066
5143.164288591521,925.9268689857353
5143.173333125742,918.0306240939104
5143.185281868198,902.8805342008847
5143.1943264024185,888.8990984777606
5143.206275144875,869.9453956360951
5143.215319679095,858.1586895045924
5143.224281235937,850.8950852390176
5143.236312955771,850.764697606368
5143.245274512613,858.0968767573188
5143.257306232446,876.1302031901913
5143.266267789287,893.1747049921635
5143.278299509119,916.558701344767
5143.28726106596,932.2131275273728
5143.299292785791,948.6772025775111
5143.308254342632,957.4765708388278
5143.317298876848,963.6655383318612
5143.329247619302,968.8744809154535
5143.338292153519,971.293459322084
5143.35024089597,973.3942594557215
5143.359285430188,974.4966787951291
5143.371234172638,975.6170921173857
5143.380278706855,976.2606494362836
5143.389240263692,976.7101555114344
5143.401271983521,976.847267980358
5143.410233540359,976.4271323383537
5143.422265260187,974.8364605830307
5143.431226817022,972.7245927123247
5143.44325853685,968.6049857423027
5143.452220093686,964.7718774688516
5143.4642518135115,959.3024307735672
5143.473213370347,955.6083872514168
5143.482257904561,952.872128156489
5143.494206647009,951.4936037358561
5143.503251181222,952.4693117172955
5143.515199923669,956.2276153191453
5143.524244457882,960.3207573544997
5143.536193200326,965.9058224315402
5143.545237734539,968.7834210921384
5143.5571864769845,968.4236391731451
5143.566231011197,963.191673884658
5143.575192568029,952.7767094664265
5143.587224287851,930.247606178911
5143.5961858446835,908.473636290732
5143.608217564505,877.5227332842649
5143.617179121337,857.55975780622
5143.629210841158,842.0408586437044
5143.63817239799,841.5125072835124
5143.6472169322,851.1026572760138
5143.659165674641,876.0488390355744
5143.668210208851,899.8897369703155
5143.680158951291,931.2842756600874
5143.6892034855,951.1376887047631
5143.70115222794,969.6075611472071
5143.7101967621475,977.3150297614776
5143.722145504588,980.3717257731926
5143.731190038795,978.199852848221
5143.7401515956235,973.0668502126098
5143.7521833154415,962.6794465809512
5143.761144872271,953.4030625153857
5143.773176592086,941.1351831118013
5143.782138148914,933.728437200679
5143.794169868729,928.4739316991983
5143.803131425558,928.7080811006442
5143.812175959762,932.473300940108
5143.824124702199,941.4262094864233
5143.833169236404,949.6573735643855
5143.845117978839,960.4121310947381
5143.854162513044,967.5270793536023
5143.86611125548,975.3166120911009
5143.875155789683,980.21966868172
5143.887104532117,986.0228047655611
5143.8961490663205,990.1678821300437
5143.905110623145,994.1434294627186
5143.917142342957,999.0829066727555
5143.926103899782,1002.3283274717697
5143.938135619593,1005.7872811846985
5143.947097176416,1007.6019760803039
5143.9591288962265,1008.8732450769088
5143.968090453049,1009.0089567786333
5143.977134987251,1008.5544701332171
5143.989083729682,1007.4168132514196
5143.998128263883,1006.5131605399016
5144.010077006312,1005.7747643590612
5144.019121540513,1005.8153241842037
5144.031070282942,1006.7604394595418
5144.040114817143,1008.0401853400244
5144.052063559571,1010.169267011182
5144.061108093771,1011.8803742995308
5144.070069650592,1013.535284197968
5144.082101370396,1015.6004700408787
5144.091062927218,1017.0635705012106
5144.103094647023,1018.999865725027
5144.112056203842,1020.4882140446593
5144.124087923648,1022.5539197930325
5144.133049480467,1024.1315336128596
5144.145081200271,1026.2129280383497
5144.154042757091,1027.6983449457953
5144.163087291286,1029.098246239832
5144.175036033711,1030.775903608843
5144.184080567907,1031.881693826164
5144.196029310331,1033.0949641314596
5144.205073844527,1033.7656872209584
5144.21702258695,1034.2381053392535
5144.226067121146,1034.2081734144617
5144.235028677962,1033.8157646029258
5144.247060397763,1032.76899245713
5144.2560219545785,1031.7403100078463
5144.268053674378,1030.3755088322591
5144.277015231195,1029.6873873254817
5144.289046950994,1029.605928075607
5144.29800850781,1030.311313925754
5144.310040227607,1032.2196294974815
5144.319001784424,1034.113309909836
5144.327963341238,1036.111823721991
5144.339995061036,1038.512503255731
5144.348956617848,1039.816065422718
5144.360988337646,1040.7225215057135
5144.370032871838,1040.6796885737328
5144.381981614254,1039.540021661379
5144.391026148446,1037.6527586255652
5144.399987705258,1034.6401649285467
5144.412019425053,1028.4337397621769
5144.420980981866,1022.0517406116999
5144.43301270166,1011.3561962304238
5144.441974258472,1002.4757568260696
5144.454005978266,990.642743584852
5144.462967535077,982.8988851538447
5144.4749992548695,974.5303085638654
5144.483960811681,969.4097580616976
5144.492922368491,963.9072748487358
5144.504954088283,953.1438062365972
5144.513915645092,940.6758536706435
5144.525947364885,916.8010823332182
5144.534908921693,895.2212042977559
5144.546940641484,866.0879513941973
5144.5559021982945,849.2017614872998
5144.56494673248,840.0205119013706
5144.576978452269,843.7168621676893
5144.585940009079,857.9928410991399
5144.597971728866,888.181099607449
5144.606933285674,913.7107404524668
5144.618965005463,944.1763030760109
5144.627926562272,959.4110751616522
5144.639958282057,966.6544497316279
5144.6489198388645,962.5514324546591
5144.65788139567,952.7277086585773
5144.6699131154555,936.7937920404645
5144.678874672262,927.7300041585587
5144.690906392049,925.3969188773668
5144.699867948855,932.5764258671592
5144.71189966864,953.0447853609724
5144.7208612254435,973.2645005687123
5144.732892945229,1001.7557081130375
5144.741854502035,1020.3471299149572
5144.750899036215,1035.070925698946
5144.762847778621,1047.5241719952821
5144.771892312802,1052.0193826823484
5144.783924032586,1053.1556126946366
5144.792885589387,1051.6770882163623
5144.8049173091695,1048.427764913994
5144.813878865973,1046.1022959766988
5144.822840422776,1044.5068661991893
5144.834872142556,1044.0868293906003
5144.843833699358,1045.0202415338936
5144.8558654191365,1047.300749153071
5144.86482697594,1048.963425027373
5144.876858695719,1049.6894742965928
5144.88582025252,1048.2236952584963
5144.8978519723,1042.4773549847412
5144.9068135291,1034.9444403935631
5144.915858063278,1024.2164440169906
5144.9278068056765,1004.7196578769896
5144.936851339855,985.5451050744857
5144.948800082255,953.9035188697113
5144.957844616431,925.9206165583889
5144.9697933588295,886.4331934938356
5144.978837893007,858.8601764642245
5144.987799449806,837.5721522660225
5144.99983116958,825.494922136399
5145.0087927263785,831.4328113547441
5145.020824446155,859.338488132111
5145.029786002951,890.9783744839527
5145.041817722725,938.7557728961834
5145.050779279522,972.1824668410583
5145.062810999295,1006.7858686938221
5145.071772556091,1023.4482670222917
5145.080817090265,1032.8221574884121
5145.09276583266,1037.200230365252
5145.101810366833,1037.1714860498878
5145.1137591092265,1035.9550851491854
5145.1228036434,1035.1712153407634
5145.134752385794,1034.510020895898
5145.143796919965,1033.967076218149
5145.15275847676,1033.216173019628
5145.16479019653,1032.2746323624403
